15814611
15817885
15820757
15822799
15825243
15829293
15832716
15834463
15835309
15836399
15836414
15853594
15836448
15835597
15835897
15835977
15835385
15835172
15835342
15834126
15834219
15833790
15833667
15833015
15832355
15831429
15831699
15829800
15829279
15828952
15827015
15825305
15825102
15824740
15823715
15827878
15823461
15822802
15822364
15821845
15821637
15821351
15820784
15820306
15819579
15818796
15818441
15816734
15832915
15815210
15813674
15812101
15811583
15811298
15808843
15808808
15807528
15806600
15806379
15805529
15804324
15804797
15804125
15803317
15803115
15803381
15802856
15802129
15802098
15801258
15801266
15800316
15799753
15798581
15797818
15797366
15796500
15812316
15796204
15796383
15799092
15801847
15809080
15806702
15808331
15809652
15812064
15814285
15816729
15817113
15818047
15819681
15819156
15818402
15818919
15818819
15818561
15817736
15816824
15816344
15820329
15816056
15815231
15815246
15814631
15813869
15813921
15812698
15813006
15811344
15809484
15807936
15809013
15807191
15806918
15806401
15807152
15806765
15808371
15807544
15808130
15808396
15807933
15808165
15808579
15808421
15808593
15808134
15806842
15807295
15807175
15806685
15807269
15806462
15806712
15805748
15806123
15805264
15804532
15804145
15803067
15802358
15813057
15803613
15802062
15800943
15800753
15800199
15800292
15800928
15798638
15798638
15797490
15797951
15797398
15796887
15796486
15801232
15795814
15795784
15795544
15795190
15794693
15793429
15792649
15791622
15792047
15791970
15794763
15795303
15798740
15801957
15802558
15807576
15805783
15806018
15806906
15807267
15807065
15807119
15807063
15807128
15817705
15808350
15806770
15805143
15805357
15804862
15804249
15802805
15801968
15800812
15800549
15799964
15799257
15799047
15798277
15796763
15795421
15794579
15794277
15793130
15793152
15792555
15791656
15790440
15790697
15790849
15790845
15790840
15790515
15789953
15793723
15790057
15788268
15787245
15786399
15785236
15795601
15786059
15784238
15783475
15782240
15781575
15780797
15779734
15779171
15778290
15777830
15777004
15776303
15775570
15775037
15774149
15772769
15772751
15772100
15771931
15771089
15770534
15770736
15769237
15769783
15768909
15767995
15767855
15767198
15766387
15766412
15766367
15768382
15770053
15781232
15772919
15776285
15778105
15778699
15779540
15783187
15786367
15784947
15785011
15784592
15784279
15783996
15783479
15783433
15782115
15782031
15781090
15780686
15779916
15779744
15779330
15779890
15780855
15778955
15777073
15777875
15777199
15776212
15775709
15775120
15775135
15774828
15774758
15774119
15774598
15774660
15774397
15774881
15784854
15775895
15773995
15773555
15774080
15773330
15773312
15773326
15816520
15772410
15771827
15771829
15770429
15769863
15769208
15767381
15766804
15766164
15765040
15764705
15764032
15762973
15762513
15762149
15760454
15761516
15759680
15759928
15758708
15758376
15762012
15758477
15757335
15757013
15756955
15755201
15765973
15753925
15752942
15752966
15752767
15752291
15754928
15752070
15752369
15753777
15754968
15756056
15756719
15758290
15762175
15762759
15765261
15766476
15767528
15768327
15769666
15770356
15770896
15771360
15772130
15773019
15772425
15772157
15772410
15771029
15770113
15769895
15769612
15768757
15768604
15768693
15768167
15768005
15777716
15768572
15765868
15765632
15765273
15765176
15765651
15764270
15765005
15765361
15764776
15764944
15765289
15766280
15765549
15765650
15765671
15765352
15765419
15765258
15765325
15764797
15764294
15764455
15763401
15763279
15762550
15762144
15761065
15760887
15764013
15760133
15759545
15759024
15758158
15757327
15766012
15754923
15754428
15753238
15753130
15753223
15752417
15751539
15756816
15750943
15750757
15750507
15749834
15749642
15749155
15748276
15747647
15747245
15746736
15745431
15744538
15744939
15743231
15745337
15747060
15748083
15749366
15751467
15754283
15760219
15757975
15762362
15765250
15766142
15776205
15766318
15766949
15766447
15766515
15766007
15766028
15766067
15765224
15770469
15765275
15764417
15763937
15764211
15764405
15764061
15765199
15764330
15764572
15763533
15762925
15762990
15762847
15763585
15762523
15762787
15763108
15763339
15763471
15763554
15764146
15764471
15780272
15764736
15763653
15764149
15763706
15763302
15763862
15763021
15762400
15762104
15761661
15765066
15760410
15760019
15759694
15759377
15757993
15757795
15757000
15756686
15756157
15755945
15755701
15755361
15754931
15754281
15754145
15753508
15753263
15752322
15752234
15751761
15755476
15755729
15755290
15755713
15755525
15755540
15755790
15760598
15756190
15755544
15755639
15755692
15755641
15754991
15755157
15754946
15754018
15753704
15753411
15753211
15752333
15752013
15756064
15752273
15752888
15752868
15754165
15757332
15759930
15765613
15766810
15769197
15770377
15773781
15774328
15774601
15792270
15776484
15776069
15775192
15775261
15774245
15773243
15773425
15772966
15772371
15771806
15771895
15771363
15770110
15769421
15767901
15767781
15766899
15766757
15769562
15766131
15765748
15765636
15765897
15765783
15766120
15777387
15767158
15765259
15764560
15764326
15779626
15765064
15761790
15760235
15759631
15758117
15757556
15757318
15757075
15755485
15754774
15754125
15753125
15752417
15752293
15751303
15751316
15750873
15749790
15748926
15748487
15748097
15747473
15746719
15746678
15745990
15745912
15745521
15745264
15744607
15761699
15746778
15744449
15744431
15743335
15743233
15743104
15741616
15741588
15741128
15740424
15740373
15739602
15739525
15739425
15738873
15738624
15739091
15739034
15742903
15744652
15747340
15750611
15752327
15754061
15758734
15757252
15758078
15759543
15763106
15765767
15767591
15768216
15778700
15767827
15767973
15767664
15766502
15766616
15765844
15765905
15765793
15765175
15765655
15765308
15763968
15763667
15763362
15763084
15761982
15762097
15761342
15761458
15761544
15761300
15761211
15761167
15761767
15761739
15762197
15762933
15762456
15761913
15761907
15761051
15760788
15760987
15760894
15761660
15759986
15759983
15759155
15757818
15757166
15793848
15757121
15756509
15756111
15755491
15754615
15754207
15753401
15752825
15752206
15751914
15750757
15751147
15750913
15750244
15750243
15749833
15749973
15749864
15749488
15749190
15748878
15748165
15751870
15749128
15748274
15748067
15747941
15748283
15747870
15747489
15747618
15756863
15747265
15746947
15746131
15746130
15745381
15745555
15781361
15749523
15745214
15744451
15743298
15743064
15742192
15742588
15747269
15744368
15745001
15747719
15748832
15751688
15757393
15762054
15766610
15767136
15769650
15770673
15771523
15772162
15772315
15773086
15772548
15772527
15771737
15770881
15770880
15771878
15770740
15770591
15770362
15770527
15770225
15770345
15769567
15769802
15769653
15804600
15773611
15769630
15767708
15767844
15767801
15767528
15767356
15772059
15767819
15767761
15767668
15768256
15768474
15769074
15769237
15768750
15769228
15768627
15768407
15767108
15767054
15766440
15769258
15765085
15764757
15763948
15763995
15764453
15763439
15763411
15762621
15763112
15762434
15761945
15795697
15762125
15761356
15761217
15760697
15760367
15760607
15765186
15759850
15760118
15759577
15760155
15760074
15759640
15760009
15759710
15759659
15759006
15759062
15759391
15759115
15758451
15761804
15757504
15757037
15757036
15756970
15757917
15756365
15756578
15756426
15756364
15756231
15756525
15791763
15760319
15762948
15764471
15769477
15771259
15772444
15781215
15778526
15780856
15781647
15782097
15782337
15782762
15782212
15782540
15782156
15781349
15781579
15781220
15781358
15780719
15780353
15795410
15780267
15779787
15779030
15778685
15778371
15777676
15778290
15777069
15777118
15776989
15776894
15777333
15777115
15777889
15805387
15779092
15778408
15778940
15778888
15779544
15779351
15783919
15779087
15778733
15778502
15778198
15777052
15776850
15776653
15776033
15775728
15775397
15775295
15773984
15773711
15775306
15773385
15772557
15772502
15772377
15771882
15772091
15771751
15772305
15770715
15770090
15770636
15769751
15769510
15795923
15768411
15768151
15768235
15767937
15767451
15767885
15767723
15768081
15767249
15766570
15766616
15766192
15765971
15765957
15765556
15765668
15765224
15764915
15764403
15764348
15764100
15763815
15763605
15763682
15762652
15762626
15762230
15761630
15762680
15771678
15765842
15769134
15775506
15778501
15780477
15785366
15786077
15786174
15790469
15785572
15785965
15785269
15784202
15784239
15783418
15783797
15783222
15783008
15782290
15781683
15781769
15781767
15780845
15780309
15794560
15780049
15779159
15778887
15778540
15778911
15778797
15778471
15778705
15778315
15778656
15776924
15776706
15776226
15775914
15775459
15775666
15774492
15774701
15773593
15773447
15773441
15772959
15772569
15772144
15771997
15771858
15771153
15770838
15769884
15769434
15769215
15768428
15768179
15776422
15766466
15766480
15765414
15764939
15765027
15764813
15764441
15764286
15763784
15763724
15763580
15764030
15762871
15761980
15761744
15760772
15761544
15760553
15760474
15773330
15744492
15744082
15743839
15743758
15743959
15743882
15743987
15742691
15741848
15740607
15751438
15739079
15737668
15736980
15736574
15735990
15735682
15734505
15751769
15732162
15730173
15729809
15729073
15728715
15727694
15727336
15725888
15725241
15724446
15724276
15723765
15724394
15722256
15722482
15721224
15719764
15719880
15720178
15719557
15719394
15719571
15719149
15718873
15718577
15718962
15718751
15718506
15718091
15729069
15717190
15715564
15714681
15731545
15715976
15712829
15712146
15711857
15711759
15713590
15715892
15720129
15722796
15724493
15728725
15731549
15732435
15733272
15733729
15735862
15735889
15735865
15736238
15735671
15734907
15735035
15734773
15733381
15732481
15730713
15730633
15730304
15729492
15728383
15727945
15726597
15725306
15724717
15724226
15724417
15724105
15724259
15724852
15724046
15724292
15724419
15724205
15724533
15724070
15724389
15724598
15724673
15724058
15725750
15723543
15723541
15722869
15722879
15721114
15718752
15717824
15716703
15716577
15715328
15715062
15714142
15714092
15713191
15713378
15712649
15722718
15712159
15710504
15709900
15709891
15709559
15708859
15708836
15713537
15708410
15707977
15707698
15707755
15707073
15707168
15706350
15705363
15705753
15704717
15704194
15703746
15703776
15703272
15703221
15704010
15702688
15702061
15701885
15702140
15701325
15701062
15700558
15699013
15698702
15698031
15697636
15696672
15697091
15706320
15695321
15694222
15694023
15693742
15694088
15694481
15701417
15699725
15702481
15707692
15712510
15714064
15716914
15717990
15719959
15721336
15721874
15721427
15721617
15723487
15720957
15720695
15720245
15718964
15718742
15718603
15718371
15718664
15717684
15717514
15717722
15717077
15716747
15716302
15716063
15715500
15715416
15715481
15715326
15715766
15715372
15720969
15716361
15715911
15716044
15716733
15716326
15716310
15714893
15715110
15714384
15713903
15714583
15712146
15712229
15711534
15710870
15710413
15709804
15709646
15709389
15709222
15708755
15708337
15708284
15706620
15705645
15705941
15705320
15704605
15704447
15704359
15704211
15703795
15703898
15708550
15703644
15703653
15703300
15702492
15702804
15702127
15701691
15702053
15705863
15700901
15701392
15700234
15700593
15699853
15699848
15699413
15699056
15699670
15698142
15697586
15697487
15697240
15696735
15695949
15695820
15696135
15694749
15694283
15694416
15695166
15697065
15699275
15705881
15710886
15711881
15712727
15714410
15718820
15719799
15720048
15720895
15720852
15720984
15721208
15720385
15719907
15719555
15718844
15718704
15718408
15720170
15718492
15718212
15717826
15717886
15717740
15716974
15718930
15716041
15715894
15716127
15717790
15717087
15717553
15718103
15718165
15718171
15718390
15717787
15716968
15716980
15715462
15716214
15715285
15714769
15714125
15712978
15712279
15711999
15711904
15711609
15711048
15710429
15709821
15709669
15709411
15708843
15708868
15708546
15710650
15707816
15707665
15707445
15707141
15707394
15706897
15715893
15707236
15706496
15706377
15706447
15705722
15705700
15739336
15704184
15703976
15703572
15706363
15701982
15701816
15701273
15701396
15700738
15699710
15699292
15698956
15699675
15700159
15702074
15704090
15705369
15709574
15711235
15712821
15718362
15721912
15725974
15727259
15727585
15736730
15728415
15728621
15728030
15727806
15727269
15727108
15726558
15730771
15726053
15725503
15725643
15725383
15725299
15724973
15725036
15724728
15723682
15723752
15723586
15722934
15722696
15722712
15722704
15723233
15723709
15724810
15725323
15725513
15725792
15725851
15725764
15726092
15726078
15725159
15725042
15724694
15724188
15723882
15722860
15721914
15721635
15721375
15721089
15719429
15718988
15719176
15718398
15717965
15716473
15716844
15716496
15715857
15717696
15715600
15715381
15715324
15715263
15715234
15715077
15715136
15714837
15723783
15715207
15715179
15714520
15714828
15722243
15713901
15713428
15713276
15712972
15711812
15711651
15711317
15711181
15710627
15743113
15709358
15709409
15709063
15712873
15719067
15720563
15727411
15730964
15733955
15734714
15735616
15736602
15737419
15739072
15739268
15739523
15739171
15739050
15738480
15738540
15738373
15738695
15738113
15738665
15737955
15737618
15736842
15736587
15735984
15767218
15740300
15735897
15735299
15736148
15736374
15736053
15740319
15737572
15737579
15737637
15738310
15739850
15737947
15738018
15736930
15737262
15736602
15736251
15736339
15735350
15735621
15735552
15734920
15734236
15733691
15733683
15733642
15733518
15707102
15708327
15708998
15709739
15715601
15716147
15719450
15720474
15723330
15725971
15730432
15731265
15731997
15732576
15732046
15731823
15730807
15730185
15729499
15730874
15727574
15726833
15725959
15725553
15725475
15724920
15723951
15723110
15722558
15722159
15721628
15720487
15719782
15719217
15718685
15732398
15718351
15717233
15716563
15716285
15716467
15716246
15716323
15716737
15715442
15715509
15714981
15714710
15715042
15714406
15713904
15713370
15712681
15710835
15710085
15710276
15709137
15708593
15708024
15711280
15706818
15706702
15704930
15705004
15704234
15703473
15703301
15712510
15704423
15702608
15701340
15701650
15699491
15699826
15699421
15698379
15698363
15697959
15697970
15697512
15701844
15697022
15696939
15696372
15694668
15694374
15693720
15693171
15692846
15692643
15692487
15692624
15691626
15692366
15694014
15695756
15697183
15699732
15701382
15702074
15703397
15708979
15709404
15710773
15712537
15713520
15714298
15714753
15760291
15715737
15713932
15713754
15713093
15712828
15712245
15712591
15712273
15710525
15710364
15710119
15710033
15709655
15709517
15709331
15708878
15708273
15707386
15706923
15706368
15705233
15705504
15705016
15704981
15705413
15705573
15705053
15705396
15705877
15705621
15705338
15714498
15706572
15704631
15704293
15704286
15703613
15702155
15747207
15701869
15699286
15699195
15698194
15697680
15696834
15696068
15695509
15694496
15694133
15693655
15693120
15692302
15691430
15691063
15690908
15690040
15689918
15689600
15689419
15689123
15689106
15688032
15688111
15687974
15690893
15687037
15686930
15687095
15686804
15686528
15686109
15686334
15695165
15687088
15685411
15685077
15685178
15684508
15684162
15684212
15683751
15682974
15683154
15681747
15681607
15681727
15688010
15686359
15690245
15692999
15694740
15697223
15700131
15703288
15705594
15706920
15707256
15707333
15707243
15707899
15707199
15710381
15706814
15706483
15706403
15706196
15705718
15705872
15705421
15705340
15705395
15704591
15704174
15703599
15703183
15748624
15702670
15702247
15702674
15701831
15702174
15701897
15702656
15702255
15702383
15702560
15702241
15701882
15701853
15701833
15702225
15701548
15701439
15701230
15700778
15700684
15700552
15700363
15699744
15699414
15697960
15697776
15697369
15700027
15696455
15696213
15696110
15695430
15694666
15694102
15693203
15694271
15691315
15691425
15690373
15731082
15688289
15688108
15688339
15687577
15687617
15691287
15687620
15686234
15686377
15686044
15685758
15684164
15683595
15683263
15682438
15681327
15681483
15696559
15680465
15681108
15681364
15681654
15682824
15687244
15690115
15691280
15694239
15698019
15742122
15704057
15703060
15704655
15705016
15705073
15709364
15705499
15704893
15705004
15705030
15703914
15703931
15706123
15704624
15704097
15703515
15703964
15702889
15702753
15702837
15702261
15701720
15715964
15701281
15701218
15700421
15701617
15700952
15701181
15702944
15701232
15701273
15701211
15701208
15705793
15700785
15699718
15699831
15698661
15698700
15701711
15697526
15696208
15695964
15695121
15694605
15693776
15693432
15692857
15691970
15692328
15691902
15691361
15690183
15689649
15703297
15688359
15688876
15688059
15687901
15687786
15687080
15695128
15686192
15686232
15685748
15685069
15685479
15685567
15684703
15720848
15683432
15683708
15682694
15682118
15682562
15681209
15681218
15681088
15680500
15681513
15682205
15683295
15686572
15690941
15695539
15696786
15698646
15713082
15701157
15701175
15701914
15702557
15702698
15702802
15703139
15704182
15702188
15701735
15701329
15735191
15701152
15700368
15700658
15699955
15699693
15699018
15699200
15702807
15698453
15698024
15697682
15696923
15697308
15697351
15697631
15697622
15697434
15697433
15698192
15698437
15698108
15697789
15710805
15697682
15697412
15696877
15696165
15696479
15695344
15695052
15694048
15693820
15692936
15692628
15692980
15691987
15726540
15695842
15689330
15689422
15688760
15687855
15687766
15686270
15686369
15686247
15685969
15687558
15686197
15685076
15684597
15684956
15684133
15683683
15683332
15683969
15683271
15695632
15683763
15681671
15681458
15680603
15680450
15680011
15679277
15679933
15677751
15676958
15677613
15677351
15677647
15678729
15712466
15680977
15681364
15685003
15687210
15690912
15695088
15696089
15696474
15696937
15697716
15698253
15697203
15697541
15697311
15697599
15698127
15697551
15698378
15698082
15696457
15696105
15696057
15695668
15695779
15703485
15695585
15696043
15696130
15726941
15700423
15696896
15696383
15696987
15694326
15696264
15698440
15708367
15698694
15697827
15697386
15696869
15698531
15695757
15694870
15694358
15694248
15693507
15697706
15692291
15691220
15690977
15690150
15689553
15688615
15688861
15688397
15687811
15687726
15687080
15686809
15687151
15687198
15685578
15685654
15684318
15684048
15683924
15683236
15683185
15682599
15691489
15679393
15679131
15678708
15676750
15677252
15674454
15673623
15672946
15671994
15671324
15670657
15670129
15669897
15670055
15668752
15668444
15668162
15670476
15667284
15666410
15666926
15665981
15665705
15665280
15664961
15667353
15664257
15664192
15663118
15662589
15662193
15661281
15660926
15669565
15658755
15658235
15657851
15657137
15656329
15663426
15655971
15654773
15654994
15654436
15654977
15654890
15655183
15656579
15663388
15660509
15661020
15663469
15669599
15670716
15672353
15678163
15676604
15676381
15677390
15677756
15677386
15676886
15677445
15676268
15675974
15675483
15675247
15678198
15674899
15673898
15673032
15672924
15672297
15680523
15669898
15669331
15668979
15668913
15668870
15668771
15724697
15668477
15668425
15669198
15669154
15669021
15669439
15669680
15669885
15670626
15670723
15670977
15670980
15670653
15673393
15670175
15670302
15670037
15668653
15668563
15668767
15667746
15667575
15667659
15666647
15666196
15664908
15663887
15663931
15663251
15671303
15661948
15661405
15660729
15660506
15660259
15660380
15716427
15659081
15659261
15658928
15659109
15658659
15658790
15658509
15657944
15657817
15657446
15656556
15656777
15655953
15655464
15654789
15654537
15654297
15654061
15653060
15652406
15655432
15652475
15652475
15653689
15654937
15655981
15658842
15662351
15668857
15670034
15670921
15673297
15674633
15674870
15676580
15675330
15675015
15674491
15673342
15672196
15671310
15670237
15670054
15669541
15671355
15668639
15668491
15666379
15667035
15666400
15665900
15664942
15664696
15664893
15664748
15665071
15665491
15665841
15674455
15666159
15665920
15665884
15665021
15664987
15664065
15664470
15663201
15663067
15662572
15661999
15661541
15660691
15660413
15664666
15659760
15658921
15658580
15658290
15658169
15657638
15656373
15656043
15655005
15653477
15654053
15653068
15652945
15652462
15651840
15666140
15651564
15650498
15650510
15650161
15649745
15649486
15650637
15649760
15649820
15648774
15648289
15648197
15653895
15648325
15647311
15646378
15645420
15644914
15644350
15643384
15641995
15642489
15641490
15641009
15641304
15644542
15642873
15644357
15647717
15652230
15655450
15658352
15661149
15662339
15678566
15666042
15666015
15665648
15666367
15666110
15666063
15665655
15674374
15665793
15665715
15666258
15666434
15667317
15666925
15666954
15670868
15665502
15664577
15663514
15662858
15662476
15661859
15660895
15664790
15660188
15658501
15658147
15657912
15657743
15657824
15660083
15656611
15656462
15656168
15655489
15656028
15655397
15654004
15653033
15652340
15651838
15650613
15658010
15648850
15646891
15646266
15646831
15645981
15645391
15649075
15643693
15642355
15641134
15640614
15640002
15639321
15638535
15638509
15637024
15636647
15639051
15635530
15635677
15635215
15634500
15634185
15633634
15633580
15632953
15632100
15644760
15630935
15629607
15628739
15627981
15628053
15627259
15626551
15626171
15626177
15625327
15624992
15623618
15623118
15622951
15623247
15624576
15626255
15632554
15634734
15636697
15639719
15646478
15649162
15649594
15650362
15650563
15650046
15651039
15650850
15650413
15650934
15649764
15661925
15648636
15647689
15647769
15647554
15647723
15646707
15654027
15645788
15644668
15644511
15644050
15643934
15642837
15642707
15646629
15642376
15642126
15642450
15642056
15641911
15642177
15641870
15646720
15642353
15642131
15641651
15641573
15641107
15641508
15642957
15639694
15638995
15638400
15636947
15636867
15636342
15635631
15635234
15634647
15646875
15633563
15632608
15631158
15631173
15630447
15629743
15628029
15627764
15627284
15627408
15626580
15625837
15625825
15624843
15624373
15624498
15624719
15630146
15625094
15624685
15624479
15624433
15624202
15624298
15624274
15627205
15623291
15623691
15623090
15622664
15622531
15622329
15621675
15628171
15620876
15620071
15621333
15623448
15628648
15628512
15631733
15634921
15636230
15639515
15642400
15643768
15648118
15648957
15649428
15649201
15649572
15650562
15655256
15649561
15649277
15648761
15648328
15648525
15648360
15647721
15647509
15647306
15650336
15647487
15647001
15647154
15645657
15646203
15645785
15645106
15645797
15644852
15644910
15650395
15690890
15690620
15689311
15689293
15691271
15687805
15686783
15686277
15685624
15685012
15684406
15685186
15683766
15682911
15682433
15681814
15680844
15746007
15681193
15679580
15678584
15678673
15677694
15676408
15687832
15674036
15672968
15671554
15671049
15670492
15669917
15670074
15669081
15667626
15668784
15669166
15670085
15679565
15683288
15683157
15684356
15686029
15687572
15689806
15692341
15693654
15694073
15694673
15695481
15695622
15697520
15697125
15696969
15697172
15696464
15696950
15695737
15694950
15694254
15693583
15693142
15694216
15691295
15690580
15690493
15690580
15688901
15690203
15690891
15691425
15694672
15692501
15692209
15692145
15691274
15691133
15690740
15690906
15689550
15689336
15688986
15687444
15687263
15686547
15747701
15682908
15682057
15680433
15691544
15675279
15675067
15674241
15673860
15673460
15672858
15673173
15675357
15672311
15671423
15670963
15668975
15668347
15667342
15666882
15666482
15665522
15665600
15665537
15665251
15664894
15664692
15664312
15664182
15663389
15663480
15662488
15662234
15661824
15661514
15724327
15661723
15658918
15658965
15658100
15658241
15672002
15660408
15661285
15665422
15667981
15669761
15677493
15678474
15680391
15680661
15681527
15681098
15681566
15681624
15680581
15679390
15677575
15677088
15677619
15676417
15675856
15674821
15674407
15673420
15672906
15672156
15671686
15669552
15669604
15669294
15668773
15670405
15669086
15668571
15668660
15668295
15667653
15667649
15666897
15665015
15665812
15664975
15664746
15662786
15662195
15674370
15660639
15659576
15658649
15658225
15657715
15657007
15656538
15655331
15655551
15654889
15654121
15654130
15684222
15653063
15652076
15651543
15651023
15649983
15663994
15648816
15648298
15648564
15648082
15647889
15647709
15647223
15645878
15643581
15644479
15644064
15642079
15640363
15639524
15639619
15638494
15637764
15637268
15637498
15640164
15640025
15640763
15641712
15645707
15646956
15648236
15650172
15651197
15652374
15679680
15657625
15658165
15659665
15660274
15660115
15660400
15661330
15658568
15658124
15658254
15657037
15657247
15658907
15656158
15653529
15653725
15654205
15652820
15652429
15652370
15650592
15649159
15649010
15648033
15647428
15647786
15647435
15648590
15647485
15647498
15647428
15646853
15647486
15647089
15650409
15646011
15645900
15645318
15644902
15644512
15658480
15645202
15642131
15641102
15640594
15639704
15638634
15637406
15637047
15635404
15633916
15633936
15633768
15631800
15644221
15630946
15630261
15630183
15629959
15629708
15628646
15636610
15628305
15628187
15627757
15627990
15627754
15627360
15627540
15627041
15626562
15626004
15640977
15624437
15623752
15623440
15622790
15622545
15624948
15622151
15619709
15620288
15621490
15622335
15622586
15626666
15627789
15644838
15635359
15636739
15639481
15642165
15645471
15646531
15647276
15647229
15647050
15646365
15667995
15646449
15645686
15645889
15645175
15644679
15646372
15644051
15643478
15642943
15641968
15644411
15641416
15641896
15640623
15641547
15641673
15641960
15642878
15642405
15649275
15642406
15642326
15641643
15640308
15640860
15638351
15637720
15637283
15636816
15636951
15656102
15635338
15633167
15633358
15632398
15631130
15632850
15629527
15628839
15628428
15627640
15626180
15626616
15626066
15625389
15625552
15625270
15624921
15625281
15624163
15624504
15630505
15623444
15623990
15623139
15622742
15622762
15622267
15622471
15621295
15621401
15620767
15620663
15640029
15619321
15619354
15618626
15618329
15617702
15617684
15618003
15618343
15620929
15622374
15624900
15629044
15634841
15636546
15637366
15639726
15642006
15642123
15643011
15643968
15644488
15644501
15644134
15644103
15643400
15642581
15641923
15640866
15640298
15640088
15638153
15657228
15636962
15635189
15635082
15634025
15636116
15633807
15633444
15633913
15633854
15633918
15634246
15634024
15637496
15634695
15634160
15633992
15633076
15632938
15632615
15631436
15630155
15635218
15628482
15628146
15627481
15627107
15626355
15625946
15625558
15624844
15624324
15625157
15623335
15621970
15621250
15620388
15619780
15639127
15619277
15617957
15616721
15616263
15616133
15615618
15615407
15615229
15614814
15617667
15614185
15613807
15613269
15613593
15613015
15613284
15611378
15610014
15609753
15609496
15610650
15610581
15616552
15624396
15631546
15630493
15630756
15631681
15633912
15633940
15633367
15633403
15632948
15632834
15632224
15631678
15634034
15630068
15630292
15630119
15629546
15628718
15628550
15628364
15627940
15626663
15625973
15608441
15610811
15612923
15620785
15618627
15619771
15621283
15625727
15628426
15629675
15633215
15637468
15634892
15635080
15636324
15636061
15635717
15634728
15635746
15633588
15636598
15632564
15631703
15631092
15630479
15639040
15629529
15628965
15628587
15628133
15633668
15625313
15625370
15625863
15625511
15630101
15626294
15625765
15625687
15625530
15624726
15624381
15627550
15623600
15623059
15623866
15622805
15623052
15622432
15622473
15621540
15621819
15619361
15616639
15616318
15616387
15615586
15615553
15616506
15614507
15614181
15614337
15613989
15620591
15612235
15612566
15611830
15611371
15615260
15611429
15611119
15611064
15610341
15610229
15610322
15613562
15610110
15610070
15610256
15609169
15609862
15609147
15609225
15609261
15608421
15611151
15608983
15608597
15608055
15608098
15608085
15615438
15608396
15608835
15608955
15614502
15616064
15617726
15619153
15676565
15626441
15628140
15630398
15635146
15636248
15641008
15637301
15636962
15636637
15636251
15635777
15635361
15638271
15633764
15633375
15632597
15632682
15632079
15631750
15631488
15630748
15631442
15628840
15629067
15637106
15630146
15630079
15630817
15630049
15631769
15631690
15632287
15632627
15685825
15633248
15633528
15632459
15633044
15633184
15632444
15660667
15632460
15631779
15631263
15630568
15629143
15629152
15628844
15627302
15627245
15625911
15625120
15625537
15624496
15623970
15636503
15624903
15622501
15622118
15622076
15622178
15621917
15622318
15629111
15622245
15622390
15621334
15620450
15620398
15622578
15619341
15619060
15618026
15618086
15617582
15616763
15645468
15620499
15615637
15615418
15615166
15614889
15614585
15614156
15613898
15613337
15613354
15612846
15615474
15617417
15620067
15622422
15623812
15628724
15634213
15638304
15642328
15642790
15650916
15644302
15643598
15643965
15643386
15643743
15642884
15642881
15642700
15642618
15666096
15642033
15642134
15642040
15641421
15641294
15668589
15639860
15639582
15638749
15638592
15638311
15638111
15637972
15637361
15640555
15637405
15638037
15637823
15637690
15638412
15638449
15639433
15638643
15641166
15638652
15638559
15637175
15643315
15635717
15635065
15633811
15632591
15632775
15632422
15631380
15630783
15630303
15629061
15628334
15626716
15625325
15624333
15623755
15622934
15623662
15623069
15622149
15622321
15622275
15621613
15620209
15619459
15619160
15618286
15617430
15617730
15616384
15614925
15612079
15611855
15611330
15610470
15610394
15609240
15608882
15607443
15607692
15605484
15607560
15605017
15604072
15603303
15603124
15604101
15635528
15613641
15617735
15627562
15632876
15633303
15633284
15634041
15633310
15632958
15632603
15633041
15632164
15630506
15636908
15629065
15629091
15627549
15627020
15627162
15625578
15632123
15624811
15624529
15624560
15623420
15623278
15622388
15622784
15621659
15621225
15620819
15643640
15619986
15619707
15620043
15619598
15619912
15620905
15620636
15621040
15619690
15619625
15619144
15619075
15618612
15618135
15616478
15616151
15616022
15613903
15618410
15612736
15611358
15609709
15609271
15606820
15612405
15604882
15603817
15603639
15603172
15600862
15600939
15600262
15598861
15598540
15602115
15597627
15596855
15597179
15596677
15594971
15594510
15593665
15592959
15592536
15592572
15592273
15591313
15595168
15589949
15588735
15587515
15587586
15587610
15588539
15597459
15596385
15599098
15605611
15608374
15613004
15613443
15613808
15614375
15614517
15641232
15617432
15611195
15610383
15610013
15612000
15608747
15608431
15608364
15606751
15606447
15605353
15604626
15604622
15603316
15603321
15608316
15602516
15602315
15603016
15603158
15603305
15605060
15604506
15605368
15604620
15604716
15604299
15624631
15603998
15602168
15602260
15601763
15601422
15627979
15599282
15597570
15596792
15595961
15595574
15598252
15594018
15594062
15593116
15592992
15592559
15592685
15591619
15590945
15590640
15590579
15589973
15590316
15589994
15589894
15596373
15589509
15589145
15588751
15588994
15588648
15588194
15587956
15587568
15587058
15586346
15585729
15585431
15613045
15588953
15585514
15587120
15589495
15592201
15594849
15598037
15601209
15606228
15606822
15608474
15610145
15609950
15609080
15608427
15608241
15607765
15607271
15606492
15605849
15605932
15604648
15603927
15603256
15620437
15603669
15600959
15599845
15599396
15599216
15598927
15603308
15599891
15600130
15600211
15601157
15600782
15604618
15601259
15601552
15602135
15601872
15600856
15600521
15600912
15600137
15603330
15597408
15597073
15596073
15594997
15636602
15636479
15636615
15635794
15633556
15632096
15632382
15630140
15629967
15628497
15626930
15632557
15625262
15623545
15622447
15621995
15621571
15620780
15626475
15618637
15617526
15617797
15616572
15615652
15648191
15619317
15613444
15612655
15612061
15611254
15610399
15609546
15608618
15607495
15607112
15606303
15604918
15604802
15603591
15604013
15606788
15609544
15612784
15617830
15619707
15623952
15625196
15626557
15627810
15630022
15630818
15631702
15680153
15630516
15630039
15629470
15627655
15632140
15628105
15626548
15626564
15625050
15625205
15625144
15624539
15623274
15621290
15620805
15621844
15620979
15623021
15621225
15621846
15620957
15621263
15621547
15621356
15621185
15620946
15620737
15620256
15619843
15619337
15619066
15618859
15618167
15664460
15618133
15616703
15615664
15616250
15615479
15615075
15614367
15613420
15616599
15612764
15611008
15609846
15609142
15608658
15609905
15607287
15606472
15606395
15605798
15605338
15605141
15604932
15604860
15604359
15604175
15602886
15602176
15601953
15602111
15601882
15601725
15601911
15601578
15601023
15601519
15601142
15601149
15628014
15600522
15599983
15600055
15599972
15604617
15602516
15605507
15606594
15609513
15613099
15618641
15618299
15623011
15625169
15626251
15626522
15626773
15626975
15627454
15627268
15627140
15626575
15625317
15625321
15624146
15623492
15621694
15622261
15621173
15620624
15618718
15618018
15616335
15615671
15615302
15615609
15615485
15619579
15616695
15615734
15615225
15615488
15615923
15616490
15616552
15616237
15618629
15616542
15616062
15615573
15614826
15614495
15614129
15613834
15612310
15612096
15609833
15608452
15608404
15606231
15605636
15605858
15603995
15603504
15603398
15601255
15625760
15599396
15599180
15598798
15599057
15598394
15628436
15601661
15596581
15596943
15596543
15595642
15596219
15595733
15598430
15595040
15593956
15592238
15591278
15589374
15588825
15587883
15588187
15587111
15585329
15584895
15584179
15583460
15583107
15590409
15584949
15588672
15591870
15595485
15604679
15602538
15603933
15605205
15606476
15606964
15608444
15607589
15607253
15607804
15607777
15607279
15609716
15607512
15607303
15607052
15607055
15607310
15608208
15606946
15610168
15606246
15606746
15605723
15605414
15606057
15605944
15606531
15607136
15607384
15607135
15607265
15607554
15610068
15606568
15605914
15605591
15605609
15605243
15604352
15607706
15603986
15602282
15600812
15598427
15596596
15594256
15592022
15590343
15590264
15587574
15586609
15583917
15582163
15580585
15577846
15577225
15574823
15574345
15574112
15572068
15571548
15570653
15568964
15567091
15566574
15568562
15565326
15562893
15560660
15560442
15558848
15557236
15554295
15553906
15555801
15553624
15553090
15552373
15551874
15551821
15553779
15555658
15557427
15558062
15560000
15563147
15566661
15567722
15569136
15570795
15572851
15576783
15583941
15577822
15576923
15576613
15576261
15575584
15575564
15574257
15573763
15575722
15572339
15571826
15570933
15570953
15570143
15569684
15569238
15571683
15568989
15567675
15567573
15566602
15566287
15564240
15566314
15563564
15563670
15563163
15564655
15565205
15565986
15565218
15565792
15566118
15566149
15566547
15566630
15566817
15566971
15568203
15568489
15568207
15568773
15568432
15568316
15567625
15570576
15568402
15568338
15568693
15568585
15568840
15572941
15569734
15568876
15568680
15568501
15568869
15568857
15568698
15570865
15568290
15568335
15568151
15568620
15568528
15569037
15569149
15568957
15568494
15570989
15568796
15568145
15568148
15567940
15568429
15568232
15574949
15568259
15567534
15566998
15565478
15565489
15564617
15580468
15560977
15558512
15557626
15557899
15561483
15561753
15562885
15563801
15566715
15567865
15567328
15568271
15567337
15565353
15564591
15563410
15561831
15561368
15560607
15561454
15559181
15558647
15557757
15556368
15561404
15554073
15554255
15553208
15552726
15551767
15552369
15552230
15551535
15551909
15551340
15551141
15550960
15550897
15553636
15553032
15552890
15553332
15553697
15553813
15554958
15555146
15558395
15556349
15556412
15556199
15556366
15556259
15555921
15555618
15556079
15555024
15554773
15555384
15552894
15552609
15552274
15552165
15550469
15556727
15548501
15548249
15547426
15562193
15545474
15545064
15544310
15544033
15543827
15543979
15554341
15545557
15544057
15544160
15543433
15543712
15546560
15544461
15543980
15544393
15543861
15544112
15544123
15544100
15544525
15546463
15548179
15550499
15552142
15556341
15558117
15561808
15564826